TITLE;PNA_120919_ThermDenat
DATA TYPE;
ORIGIN;JASCO
OWNER;IREBS
DATE;12/09/20
TIME;02:23:18
SPECTROMETER/DATA SYSTEM;
LOCALE;1036
XUNITS;Temperature[C]
YUNITS;CD [mdeg]
Y2UNITS;HT [V]
Y3UNITS;ABSORBANCE
FIRSTX;   35,0100
LASTX;   95,0000
NPOINTS;     121
XYDATA
35,0100;-1,55834;443,837;2,53616
35,5000;-0,939348;444,295;2,53933
36,0000;-0,918755;444,693;2,54209
36,5000;-0,89155;444,976;2,54404
37,0000;-0,461201;445,452;2,54733
37,4900;-1,02442;445,82;2,54987
37,9900;-1,72084;446,051;2,55147
38,4900;-1,62244;446,454;2,55425
39,0100;-0,956061;446,697;2,55592
39,4900;-0,745004;447,27;2,55988
40,0000;-0,708943;446,909;2,55739
40,5100;-0,582377;447,419;2,5609
41,0000;-1,33534;447,334;2,56032
41,4900;-1,3246;447,17;2,55919
42,0100;-0,77189;446,972;2,55782
42,5000;-1,14353;447,633;2,56238
43,0100;-1,15366;448,128;2,56579
43,5000;-0,185449;449,155;2,57286
43,9900;-0,147787;449,915;2,57808
44,5000;-1,58766;450,675;2,5833
45,0000;-1,05609;451,433;2,58851
45,5000;-0,821875;452,267;2,59423
46,0100;-0,610711;452,395;2,5951
46,4900;-1,16017;453,59;2,60329
47,0100;-1,26257;454,331;2,60836
47,5000;-1,04719;455,314;2,61508
47,9900;-0,502638;455,727;2,6179
48,5100;-0,757055;456,745;2,62485
49,0100;-0,284209;457,474;2,62982
49,5000;-1,04456;457,416;2,62943
50,0200;-1,63482;458,405;2,63616
50,5100;-1,08153;458,872;2,63934
51,0000;-1,15049;459,214;2,64167
51,5100;-0,16061;460,06;2,64742
52,0000;-0,281845;460,836;2,65269
52,5000;-0,627114;461,434;2,65675
53,0100;-1,63779;462,498;2,66396
53,5000;-0,978034;463,921;2,6736
54,0000;-0,708784;465,076;2,68141
54,5000;-0,0375435;466,64;2,69196
55,0100;-1,59758;466,559;2,69142
55,5000;-1,33795;466,949;2,69405
56,0000;-1,055;468,746;2,70615
56,5100;-1,42809;470,216;2,71603
57,0000;-1,03195;471,368;2,72376
57,4900;-1,31162;471,913;2,72742
58,0000;-1,56108;472,462;2,7311
58,5000;-0,767084;473,032;2,73492
59,0000;-0,949225;473,814;2,74015
59,5100;-0,807135;474,763;2,7465
60,0000;-0,956705;476,258;2,75648
60,5200;-1,57901;476,889;2,76069
61,0100;-1,30987;479,094;2,77537
61,4900;-0,943523;481,323;2,79017
62,0000;-0,556339;482,463;2,79772
62,5000;-1,46589;482,731;2,7995
62,9900;0,0388306;482,919;2,80074
63,5100;-0,298038;485,023;2,81465
64,0000;-0,744751;486,61;2,82512
64,4900;-0,834221;487,639;2,8319
64,9900;-1,04239;489,144;2,84179
65,4900;-0,997829;489,837;2,84635
65,9900;-0,950659;490,667;2,85179
66,5100;-0,898608;493,273;2,86886
67,0100;0,199628;494,879;2,87935
67,4900;-1,22486;495,505;2,88344
68,0000;-1,16702;495,951;2,88634
68,4900;-0,0989258;498,482;2,90282
69,0000;-1,5715;499,691;2,91067
69,4900;-1,51564;499,915;2,91212
70,0000;-0,776909;502,279;2,92744
70,5000;0,255408;502,797;2,93079
71,0000;-0,714125;503,443;2,93497
71,5000;-0,90572;505,727;2,9497
72,0000;-1,40735;507,327;2,96
72,5000;-2,01982;508,465;2,96732
73,0200;-2,04219;510,666;2,98143
73,4900;-1,05207;511,457;2,9865
74,0000;-1,42785;512,319;2,99201
74,5100;0,599832;513,261;2,99803
75,0100;-1,27589;514,404;3,00532
75,5000;-2,25574;515,271;3,01084
75,9900;-0,975092;516,449;3,01834
76,5000;-1,82562;517,428;3,02457
77,0100;-1,70463;519,545;3,038
77,4900;-0,561542;521,899;3,05289
78,0000;-0,223657;522,223;3,05494
78,4900;-1,04299;523,41;3,06243
78,9900;-1,4757;524,895;3,07179
79,4900;-2,11739;525,572;3,07605
80,0000;0,101288;527,005;3,08506
80,4800;-1,42131;528,249;3,09286
81,0000;-1,22748;531,607;3,11387
81,5000;-1,31866;532,151;3,11727
81,9800;-0,940935;533,184;3,12371
82,5100;-0,805388;534,624;3,13268
83,0100;-0,0904434;535,855;3,14033
83,4800;-1,81938;537,609;3,15121
83,9900;-0,8589;539,233;3,16126
84,5100;-1,58216;542,252;3,1799
85,0000;-0,0880875;543,293;3,18631
85,5000;-0,611405;544,194;3,19185
86,0000;-0,606358;545,503;3,19989
86,5000;-1,34818;546,664;3,20701
87,0000;-0,44599;548,141;3,21605
87,4900;-1,8877;549,435;3,22396
88,0100;-0,446673;550,745;3,23195
88,4800;-2,58248;552,214;3,2409
89,0100;-0,0408516;553,631;3,24951
89,5100;0,200442;556,271;3,26552
89,9800;-0,900143;557,304;3,27177
90,5100;-1,53133;558,766;3,2806
90,9900;-1,56858;560,116;3,28874
91,4800;-1,46992;561,355;3,2962
92,0100;0,655897;562,37;3,3023
92,5100;-0,98797;563,692;3,31023
92,9900;-0,358513;565,118;3,31877
93,5100;-1,84696;567,425;3,33256
94,0100;-0,953979;568,845;3,34103
94,5000;-2,53093;570,579;3,35135
95,0000;0,253282;571,339;3,35586

##### Extended Information
[Comments]
Sample name;PNA_120919_ThermDenat
Comment;C1: buffer; C2: D2-T; C3: T; C4: D1; C5: D2; C6: tern
User;YN
Division;IREBS
Company;IREBS

[Detailed Information]
Creation date;20/09/2012 02:23

Data array type;Non-linear data array * 3
Horizontal axis;Temperature [C]
Vertical axis(1);CD [mdeg]
Vertical axis(2);HT [V]
Vertical axis(3);Abs
Start;35,01 C
End;95 C
Data points;121     

[Measurement Information]
Instrument Name;CD
Model Name;J-815
Serial No.;B039561168

Accessory;MPTC-490S/15
Accessory S/N;B002661326
  Cell;1
  Control Sonsor;Holder
  Monitor Sensor;Holder
  Start Mode;Keep target temperature +/-0.10 deg C while 5 seconds
  Cell Length;10 mm

Photometric Mode;CD, HT, Abs
Sensitivity;Standard
D.I.T.;4 sec
Bandwidth;2.00 nm
Monitor Wavelength;200 nm
Baseline Correction;None
Shutter Control;Auto
PMT Voltage;Auto
Solvent;P20/0/6.8
Concentration;2e-005 mol/L

