TITLE	PNA8xx_AftDenatT95a_1mm_130627
DATA TYPE	
ORIGIN	JASCO
OWNER	IREBS
DATE	13/06/27
TIME	16:19:05
SPECTROMETER/DATA SYSTEM	
LOCALE	1036
RESOLUTION	
DELTAX	-1
XUNITS	NANOMETERS
YUNITS	CD [mdeg]
Y2UNITS	HT [V]
Y3UNITS	ABSORBANCE
FIRSTX	  400,0000
LASTX	  190,0000
NPOINTS	     211
FIRSTY	     2,24651
MAXY	     2,69565
MINY	    -5,05647
XYDATA
400,0000	2,24651	208,791	0,114013
399,0000	2,20824	208,423	0,10925
398,0000	2,22727	208,284	0,10744
397,0000	2,22871	208,324	0,107959
396,0000	2,25425	208,438	0,109437
395,0000	2,24804	208,538	0,110733
394,0000	2,24535	208,583	0,111315
393,0000	2,25889	208,591	0,111426
392,0000	2,25756	208,587	0,111367
391,0000	2,24108	208,581	0,11129
390,0000	2,20906	208,557	0,110981
389,0000	2,15005	208,475	0,109927
388,0000	2,10821	208,324	0,107962
387,0000	2,07315	208,104	0,105105
386,0000	2,12701	207,865	0,102003
385,0000	2,17403	207,619	0,098823
384,0000	2,21702	207,368	0,0955663
383,0000	2,16415	207,109	0,0922095
382,0000	2,13565	206,877	0,0892003
381,0000	2,11204	206,672	0,0865359
380,0000	2,15298	206,501	0,0843157
379,0000	2,12372	206,321	0,0819778
378,0000	2,12751	206,146	0,0797129
377,0000	2,13579	205,971	0,0774462
376,0000	2,16821	205,794	0,0751468
375,0000	2,19512	205,597	0,0725974
374,0000	2,14296	205,376	0,069724
373,0000	2,14962	205,172	0,0670842
372,0000	2,13239	204,967	0,0644228
371,0000	2,15919	204,792	0,0621525
370,0000	2,16689	204,633	0,0600946
369,0000	2,15552	204,497	0,0583265
368,0000	2,13855	204,381	0,0568257
367,0000	2,12888	204,268	0,0553595
366,0000	2,11917	204,171	0,0540956
365,0000	2,16549	204,076	0,0528712
364,0000	2,20431	203,987	0,0517146
363,0000	2,18758	203,877	0,0502799
362,0000	2,13339	203,758	0,0487457
361,0000	2,05465	203,629	0,0470713
360,0000	2,02573	203,524	0,0457015
359,0000	2,03497	203,422	0,0443786
358,0000	2,03341	203,339	0,0433118
357,0000	2,03051	203,259	0,0422644
356,0000	2,07757	203,201	0,0415181
355,0000	2,0892	203,149	0,0408392
354,0000	2,09932	203,09	0,0400792
353,0000	2,08014	203,016	0,0391189
352,0000	2,08645	202,939	0,038114
351,0000	2,08003	202,865	0,0371558
350,0000	2,05146	202,784	0,0361103
349,0000	2,04491	202,705	0,0350812
348,0000	2,0473	202,607	0,033813
347,0000	2,04667	202,488	0,0322631
346,0000	2,06981	202,367	0,0307006
345,0000	2,09262	202,241	0,0290677
344,0000	2,12015	202,118	0,0274734
343,0000	2,14182	201,984	0,0257326
342,0000	2,17193	201,853	0,024035
341,0000	2,2128	201,729	0,0224303
340,0000	2,2053	201,612	0,0209134
339,0000	2,18737	201,511	0,0195966
338,0000	2,17905	201,417	0,0183805
337,0000	2,23395	201,342	0,0174075
336,0000	2,28294	201,271	0,016481
335,0000	2,29382	201,195	0,0155007
334,0000	2,30715	201,13	0,0146551
333,0000	2,26204	201,059	0,0137288
332,0000	2,23024	200,995	0,0129022
331,0000	2,25721	200,947	0,0122789
330,0000	2,25782	200,889	0,0115362
329,0000	2,31919	200,841	0,0109114
328,0000	2,34224	200,766	0,00993095
327,0000	2,37837	200,68	0,00882333
326,0000	2,38134	200,545	0,00707001
325,0000	2,42417	200,389	0,00504569
324,0000	2,48442	200,266	0,00344991
323,0000	2,51884	200,208	0,00270037
322,0000	2,57965	200,23	0,00298311
321,0000	2,59507	200,24	0,00310898
320,0000	2,61821	200,212	0,00275301
319,0000	2,63073	200,144	0,00187259
318,0000	2,65112	200,07	0,000907731
317,0000	2,68905	199,973	-0,000346732
316,0000	2,69565	199,862	-0,00178762
315,0000	2,6841	199,725	-0,00356087
314,0000	2,64943	199,622	-0,00490676
313,0000	2,64231	199,581	-0,00543557
312,0000	2,64731	199,598	-0,00521523
311,0000	2,64553	199,646	-0,0045884
310,0000	2,64304	199,666	-0,00433204
309,0000	2,65776	199,677	-0,00418797
308,0000	2,65671	199,677	-0,00419311
307,0000	2,64824	199,69	-0,0040179
306,0000	2,64004	199,719	-0,00364293
305,0000	2,63794	199,759	-0,00312732
304,0000	2,6392	199,818	-0,00235799
303,0000	2,64978	199,889	-0,00143509
302,0000	2,63058	199,981	-0,000251737
301,0000	2,61065	200,095	0,00123032
300,0000	2,58454	200,238	0,0030909
299,0000	2,59552	200,425	0,00550813
298,0000	2,56892	200,629	0,00816114
297,0000	2,55031	200,874	0,0113337
296,0000	2,5236	201,14	0,0147898
295,0000	2,51074	201,455	0,0188732
294,0000	2,5021	201,774	0,0230079
293,0000	2,48528	202,063	0,026755
292,0000	2,5035	202,412	0,0312837
291,0000	2,48634	202,913	0,0377846
290,0000	2,45809	203,571	0,0463122
289,0000	2,37849	204,303	0,0558161
288,0000	2,27764	204,998	0,0648251
287,0000	2,2508	205,68	0,0736758
286,0000	2,20583	206,387	0,0828348
285,0000	2,20577	207,128	0,0924547
284,0000	2,18909	207,865	0,102004
283,0000	2,17381	208,606	0,111624
282,0000	2,13214	209,345	0,121206
281,0000	2,05479	210,089	0,130852
280,0000	2,02493	210,869	0,140973
279,0000	2,01784	211,667	0,151327
278,0000	2,00917	212,475	0,161803
277,0000	1,95148	213,27	0,172115
276,0000	1,90525	214,049	0,182211
275,0000	1,83163	214,808	0,192058
274,0000	1,80729	215,577	0,202037
273,0000	1,75539	216,356	0,212137
272,0000	1,68576	217,147	0,222391
271,0000	1,66083	217,959	0,232925
270,0000	1,6081	218,751	0,243199
269,0000	1,59865	219,565	0,253764
268,0000	1,56835	220,373	0,264244
267,0000	1,54953	221,2	0,274965
266,0000	1,50533	222,019	0,285583
265,0000	1,48966	222,802	0,295744
264,0000	1,48275	223,571	0,305711
263,0000	1,47772	224,352	0,31585
262,0000	1,44251	225,148	0,326173
261,0000	1,36701	225,959	0,33669
260,0000	1,30971	226,76	0,347078
259,0000	1,28605	227,504	0,356729
258,0000	1,25301	228,173	0,365407
257,0000	1,22524	228,789	0,373397
256,0000	1,20732	229,343	0,380584
255,0000	1,16892	229,836	0,386977
254,0000	1,12694	230,243	0,392251
253,0000	1,07465	230,567	0,396451
252,0000	1,06589	230,837	0,399954
251,0000	1,0199	231,043	0,40263
250,0000	0,984808	231,157	0,404101
249,0000	0,988359	231,189	0,404523
248,0000	0,963561	231,155	0,404086
247,0000	0,976678	231,093	0,403275
246,0000	0,974846	230,994	0,401997
245,0000	0,909466	230,84	0,39999
244,0000	0,928711	230,645	0,397467
243,0000	0,907599	230,424	0,394594
242,0000	0,903345	230,225	0,392014
241,0000	0,852736	230,043	0,389659
240,0000	0,790546	229,885	0,387612
239,0000	0,719436	229,754	0,385912
238,0000	0,674294	229,684	0,385008
237,0000	0,631759	229,667	0,384781
236,0000	0,593412	229,702	0,385241
235,0000	0,561244	229,792	0,386399
234,0000	0,537661	229,933	0,38823
233,0000	0,497522	230,143	0,390959
232,0000	0,409852	230,39	0,39416
231,0000	0,332334	230,671	0,397802
230,0000	0,256466	231,051	0,402729
229,0000	0,249866	231,565	0,409399
228,0000	0,278859	232,223	0,417938
227,0000	0,278943	232,968	0,4276
226,0000	0,197085	233,747	0,437703
225,0000	0,156781	234,625	0,449083
224,0000	0,125462	235,619	0,461973
223,0000	0,0877057	236,744	0,476569
222,0000	0,0496784	238,025	0,493184
221,0000	-0,0480105	239,456	0,511751
220,0000	-0,118665	241,088	0,53291
219,0000	-0,187014	242,941	0,55695
218,0000	-0,176436	245,07	0,584555
217,0000	-0,205867	247,476	0,615767
216,0000	-0,374914	250,187	0,650921
215,0000	-0,601283	253,277	0,690999
214,0000	-0,804076	256,843	0,73725
213,0000	-1,03908	261,021	0,791442
212,0000	-1,11731	265,962	0,855531
211,0000	-1,12658	271,772	0,930878
210,0000	-1,18148	278,517	1,01752
209,0000	-1,38095	286,329	1,10392
208,0000	-1,75172	295,374	1,20216
207,0000	-2,12565	305,845	1,31347
206,0000	-2,34124	317,991	1,43934
205,0000	-2,58651	331,992	1,5801
204,0000	-2,74305	348,268	1,73792
203,0000	-2,33017	367,486	1,91621
202,0000	-2,46224	389,983	2,11383
201,0000	-2,02742	416,755	2,33344
200,0000	-2,48106	447,965	2,56467
199,0000	-2,77148	484,78	2,81304
198,0000	-2,38228	528,246	3,09284
197,0000	-1,3913	580,003	3,40701
196,0000	-0,0106137	641,736	3,73162
195,0000	0,574675	714,062	4,08172
194,0000	-0,549861	797,568	4,48593
193,0000	-1,71711	882,654	4,89779
192,0000	-3,35696	948,735	5,21765
191,0000	-5,05647	986,399	5,39996
190,0000	-4,83794	998,155	5,45687

##### Extended Information
[Comments]
Sample name	PNA8xx_AftDenatT95a_1mm_130627
Comment	C1: buff; C2: PNA869; C3: PNA871
User	YN
Division	IREBS
Company	IREBS

[Detailed Information]
Creation date	27/06/2013 16:19

Data array type	Linear data array * 3
Horizontal axis	Wavelength [nm]
Vertical axis(1)	CD [mdeg]
Vertical axis(2)	HT [V]
Vertical axis(3)	Abs
Start	400 nm
End	190 nm
Data interval	1 nm
Data points	211     

[Measurement Information]
Instrument Name	CD
Model Name	J-815
Serial No.	B039561168

Accessory	MPTC-490S/15
Accessory S/N	B002661326
  Cell	3
  Temperature	95.01 C
  Control Sonsor	Holder
  Monitor Sensor	Holder
  Start Mode	Keep target temperature +/-0.10 deg C while 5 seconds
  Cell Length	10 mm

Measurement Date	27/06/2013 16:17

Photometric Mode	CD, HT, Abs
Measure Range	400 - 190 nm
Data pitch	1 nm
Sensitivity	High
D.I.T.	1 sec
Bandwidth	2.00 nm
Start Mode	Immediately
Scanning Speed	200 nm/min
Baseline Correction	None
Shutter Control	Auto
PMT Voltage	Auto
Accumulations	3
Solvent	P20/0/6.8
Concentration	33 umol/L

