TITLE	PNA8xx_AftDenatT35a_1mm_130627
DATA TYPE	
ORIGIN	JASCO
OWNER	IREBS
DATE	13/06/28
TIME	14:25:07
SPECTROMETER/DATA SYSTEM	
LOCALE	1036
RESOLUTION	
DELTAX	-1
XUNITS	NANOMETERS
YUNITS	CD [mdeg]
Y2UNITS	HT [V]
Y3UNITS	ABSORBANCE
FIRSTX	  400,0000
LASTX	  190,0000
NPOINTS	     211
FIRSTY	    -0,05950
MAXY	     2,88446
MINY	    -0,92064
XYDATA
400,0000	-0,0595008	213,461	0,174591
399,0000	-0,0652553	213,063	0,16943
398,0000	-0,0639192	212,877	0,167011
397,0000	-0,0535473	212,894	0,167234
396,0000	-0,0452632	212,99	0,168485
395,0000	-0,042046	213,09	0,169776
394,0000	-0,044395	213,141	0,170437
393,0000	-0,0525635	213,149	0,170542
392,0000	-0,0608492	213,158	0,170657
391,0000	-0,0670026	213,145	0,170497
390,0000	-0,0628562	213,112	0,170061
389,0000	-0,0470147	213,011	0,168752
388,0000	-0,0229661	212,854	0,166718
387,0000	0,000373567	212,628	0,16379
386,0000	0,0121233	212,372	0,160471
385,0000	0,00632205	212,107	0,157033
384,0000	-0,00219889	211,834	0,153491
383,0000	-0,0075897	211,562	0,14996
382,0000	0,000932831	211,314	0,146748
381,0000	0,0226983	211,09	0,143833
380,0000	0,0460896	210,878	0,141094
379,0000	0,0643193	210,68	0,138515
378,0000	0,0719309	210,49	0,13606
377,0000	0,0641252	210,312	0,133751
376,0000	0,0457622	210,115	0,131188
375,0000	0,0111455	209,894	0,128324
374,0000	-0,0226162	209,658	0,125268
373,0000	-0,0546036	209,434	0,122357
372,0000	-0,0662422	209,229	0,1197
371,0000	-0,0576735	209,044	0,117303
370,0000	-0,0448288	208,872	0,115065
369,0000	-0,0421099	208,707	0,112929
368,0000	-0,0500443	208,567	0,111114
367,0000	-0,0552773	208,431	0,109347
366,0000	-0,0603864	208,335	0,108109
365,0000	-0,0658866	208,224	0,106665
364,0000	-0,0796991	208,112	0,105214
363,0000	-0,0972985	207,989	0,103618
362,0000	-0,104173	207,862	0,101976
361,0000	-0,0988128	207,738	0,100356
360,0000	-0,100521	207,619	0,0988217
359,0000	-0,118107	207,51	0,0974084
358,0000	-0,140305	207,418	0,0962161
357,0000	-0,147809	207,335	0,0951342
356,0000	-0,136394	207,259	0,0941458
355,0000	-0,115508	207,176	0,0930723
354,0000	-0,0987854	207,082	0,0918472
353,0000	-0,0818586	206,983	0,0905654
352,0000	-0,065139	206,89	0,0893653
351,0000	-0,0519809	206,815	0,0883895
350,0000	-0,0510675	206,721	0,0871746
349,0000	-0,0638462	206,625	0,0859204
348,0000	-0,0788945	206,5	0,0843063
347,0000	-0,0988491	206,366	0,0825676
346,0000	-0,125326	206,233	0,0808445
345,0000	-0,159845	206,099	0,0791014
344,0000	-0,191222	205,967	0,0773878
343,0000	-0,201888	205,831	0,0756217
342,0000	-0,199926	205,668	0,0735147
341,0000	-0,184851	205,501	0,0713483
340,0000	-0,167419	205,339	0,0692484
339,0000	-0,151203	205,2	0,067448
338,0000	-0,139477	205,07	0,0657642
337,0000	-0,144979	204,952	0,0642295
336,0000	-0,170218	204,843	0,0628118
335,0000	-0,205655	204,755	0,0616704
334,0000	-0,235344	204,672	0,0605962
333,0000	-0,255371	204,587	0,0594908
332,0000	-0,272801	204,516	0,0585752
331,0000	-0,289233	204,425	0,0573976
330,0000	-0,305971	204,339	0,0562833
329,0000	-0,316495	204,262	0,055275
328,0000	-0,322856	204,175	0,0541555
327,0000	-0,31861	204,054	0,0525791
326,0000	-0,310725	203,883	0,0503667
325,0000	-0,306113	203,674	0,0476522
324,0000	-0,304164	203,501	0,045414
323,0000	-0,316592	203,412	0,0442585
322,0000	-0,340906	203,405	0,0441682
321,0000	-0,377982	203,404	0,0441531
320,0000	-0,417423	203,356	0,0435277
319,0000	-0,455356	203,272	0,0424384
318,0000	-0,487353	203,17	0,0411157
317,0000	-0,502732	203,046	0,039506
316,0000	-0,510705	202,908	0,0377216
315,0000	-0,506641	202,744	0,0355904
314,0000	-0,499978	202,613	0,033889
313,0000	-0,491294	202,538	0,0329126
312,0000	-0,491895	202,518	0,0326554
311,0000	-0,49765	202,547	0,0330378
310,0000	-0,501838	202,555	0,0331392
309,0000	-0,504116	202,539	0,0329277
308,0000	-0,497521	202,508	0,0325278
307,0000	-0,492442	202,475	0,0320977
306,0000	-0,487903	202,443	0,0316896
305,0000	-0,476945	202,417	0,0313467
304,0000	-0,46219	202,395	0,0310602
303,0000	-0,455786	202,398	0,0310986
302,0000	-0,464622	202,4	0,0311295
301,0000	-0,4822	202,413	0,0313008
300,0000	-0,503062	202,421	0,0313991
299,0000	-0,502697	202,44	0,0316529
298,0000	-0,493089	202,468	0,0320151
297,0000	-0,475462	202,497	0,0323848
296,0000	-0,459577	202,522	0,0327157
295,0000	-0,432229	202,536	0,0328892
294,0000	-0,395667	202,54	0,032939
293,0000	-0,357356	202,471	0,0320465
292,0000	-0,327436	202,422	0,0314121
291,0000	-0,304581	202,48	0,0321686
290,0000	-0,278929	202,681	0,0347698
289,0000	-0,235682	202,945	0,0381963
288,0000	-0,200171	203,188	0,0413499
287,0000	-0,170694	203,381	0,0438497
286,0000	-0,166297	203,584	0,0464781
285,0000	-0,154686	203,807	0,049379
284,0000	-0,135771	204,056	0,0526113
283,0000	-0,10338	204,312	0,0559231
282,0000	-0,0758144	204,576	0,0593528
281,0000	-0,0486196	204,848	0,0628808
280,0000	-0,0271353	205,162	0,0669512
279,0000	-0,018447	205,52	0,0715994
278,0000	-0,0271044	205,928	0,0768852
277,0000	-0,0482574	206,341	0,0822428
276,0000	-0,070064	206,775	0,087868
275,0000	-0,0766635	207,198	0,0933566
274,0000	-0,074784	207,637	0,0990459
273,0000	-0,0699468	208,086	0,104869
272,0000	-0,0693965	208,573	0,111198
271,0000	-0,0638985	209,099	0,11801
270,0000	-0,0582593	209,656	0,125232
269,0000	-0,0580201	210,25	0,132938
268,0000	-0,0535021	210,852	0,140755
267,0000	-0,0579272	211,47	0,148764
266,0000	-0,0687104	212,121	0,15721
265,0000	-0,0892041	212,765	0,16556
264,0000	-0,120431	213,405	0,173858
263,0000	-0,147685	214,048	0,182203
262,0000	-0,166246	214,68	0,190399
261,0000	-0,171492	215,322	0,198731
260,0000	-0,157949	215,973	0,207172
259,0000	-0,138745	216,594	0,21523
258,0000	-0,113605	217,182	0,222851
257,0000	-0,101229	217,741	0,230105
256,0000	-0,0900726	218,252	0,236732
255,0000	-0,0714011	218,745	0,243123
254,0000	-0,0443887	219,178	0,248734
253,0000	-0,00616175	219,565	0,253752
252,0000	0,0299409	219,917	0,258325
251,0000	0,0680263	220,244	0,262558
250,0000	0,119388	220,549	0,266526
249,0000	0,169735	220,798	0,269753
248,0000	0,227833	221,03	0,272764
247,0000	0,290876	221,239	0,275471
246,0000	0,334908	221,485	0,278664
245,0000	0,35721	221,727	0,281803
244,0000	0,345173	221,953	0,284728
243,0000	0,325893	222,189	0,287787
242,0000	0,308648	222,458	0,291281
241,0000	0,298401	222,741	0,294957
240,0000	0,304701	223,052	0,298991
239,0000	0,325609	223,35	0,302853
238,0000	0,361138	223,702	0,307412
237,0000	0,402752	224,086	0,312399
236,0000	0,438257	224,518	0,317999
235,0000	0,458635	224,988	0,324094
234,0000	0,466245	225,496	0,33068
233,0000	0,481408	226,026	0,337555
232,0000	0,497516	226,566	0,344561
231,0000	0,514297	227,119	0,351729
230,0000	0,523434	227,697	0,359228
229,0000	0,52704	228,364	0,367875
228,0000	0,52502	229,11	0,377561
227,0000	0,5391	229,92	0,388058
226,0000	0,568037	230,75	0,398822
225,0000	0,608426	231,581	0,4096
224,0000	0,654501	232,454	0,420924
223,0000	0,697039	233,365	0,432741
222,0000	0,727139	234,317	0,445086
221,0000	0,740709	235,308	0,457943
220,0000	0,721656	236,34	0,471332
219,0000	0,680138	237,41	0,485204
218,0000	0,616105	238,511	0,499493
217,0000	0,541902	239,638	0,514107
216,0000	0,469875	240,819	0,529422
215,0000	0,41566	242,062	0,545543
214,0000	0,371849	243,382	0,562666
213,0000	0,341447	244,811	0,581192
212,0000	0,312087	246,403	0,601848
211,0000	0,296243	248,184	0,624945
210,0000	0,277533	250,203	0,651137
209,0000	0,247793	252,504	0,680974
208,0000	0,18406	255,17	0,715556
207,0000	0,0991201	258,322	0,756442
206,0000	0,0126538	262,068	0,805027
205,0000	-0,125821	266,577	0,863507
204,0000	-0,273298	272,004	0,933891
203,0000	-0,450847	278,594	1,01839
202,0000	-0,625765	286,686	1,10783
201,0000	-0,666013	296,682	1,21621
200,0000	-0,642558	308,852	1,34495
199,0000	-0,73841	323,627	1,49655
198,0000	-0,854089	341,275	1,67088
197,0000	-0,920644	362,404	1,86992
196,0000	-0,403467	387,748	2,09474
195,0000	0,201363	418,013	2,34334
194,0000	0,869959	454,849	2,6119
193,0000	1,50155	498,715	2,90433
192,0000	2,08191	552,122	3,24034
191,0000	2,60547	616,986	3,61182
190,0000	2,88446	693,466	3,98202

##### Extended Information
[Comments]
Sample name	PNA8xx_AftDenatT35a_1mm_130627
Comment	C1: buff; C2: PNA869; C3: PNA871
User	YN
Division	IREBS
Company	IREBS

[Detailed Information]
Creation date	28/06/2013 14:25

Data array type	Linear data array * 3
Horizontal axis	Wavelength [nm]
Vertical axis(1)	CD [mdeg]
Vertical axis(2)	HT [V]
Vertical axis(3)	Abs
Start	400 nm
End	190 nm
Data interval	1 nm
Data points	211     

[Measurement Information]
Instrument Name	CD
Model Name	J-815
Serial No.	B039561168

Accessory	MPTC-490S/15
Accessory S/N	B002661326
  Cell	1
  Temperature	35.00 C
  Control Sonsor	Holder
  Monitor Sensor	Holder
  Start Mode	Keep target temperature +/-0.10 deg C while 5 seconds
  Cell Length	10 mm

Measurement Date	27/06/2013 18:35

Photometric Mode	CD, HT, Abs
Measure Range	400 - 190 nm
Data pitch	1 nm
Sensitivity	High
D.I.T.	1 sec
Bandwidth	2.00 nm
Start Mode	Immediately
Scanning Speed	200 nm/min
Baseline Correction	None
Shutter Control	Auto
PMT Voltage	Auto
Accumulations	3
Solvent	P20/0/6.8
Concentration	33 umol/L

