TITLE;D2T_T35_120919e_BfDenat
DATA TYPE;
ORIGIN;JASCO
OWNER;
DATE;12/09/19
TIME;17:17:00
SPECTROMETER/DATA SYSTEM;
LOCALE;1036
RESOLUTION;
DELTAX;-0,5
XUNITS;NANOMETERS
YUNITS;CD [mdeg]
Y2UNITS;HT [V]
Y3UNITS;ABSORBANCE
FIRSTX;  260,0000
LASTX;  195,0000
NPOINTS;     131
FIRSTY;     0,95819
MAXY;     1,88845
MINY;    -1,39373
XYDATA
260,0000;0,958192;251,999;0,674429
259,5000;0,941004;252,234;0,67747
259,0000;0,985514;252,698;0,683487
258,5000;0,916499;253,099;0,688691
258,0000;0,869642;253,251;0,690666
257,5000;0,903788;253,384;0,692391
257,0000;0,891602;253,57;0,694807
256,5000;0,84836;253,768;0,697368
256,0000;0,902003;254,079;0,701405
255,5000;0,955537;254,4;0,705562
255,0000;0,876145;254,528;0,707226
254,5000;0,975008;254,604;0,708216
254,0000;0,889863;254,717;0,709674
253,5000;0,740824;254,832;0,711173
253,0000;0,783416;254,928;0,712415
252,5000;0,806479;255,067;0,714214
252,0000;0,794138;255,274;0,716901
251,5000;0,678117;255,373;0,718183
251,0000;0,697193;255,352;0,717913
250,5000;0,673047;255,356;0,717971
250,0000;0,79469;255,496;0,719777
249,5000;0,760003;255,595;0,721064
249,0000;0,586632;255,583;0,720916
248,5000;0,595544;255,526;0,720178
248,0000;0,781027;255,485;0,719635
247,5000;0,753141;255,455;0,719256
247,0000;0,673997;255,492;0,71973
246,5000;0,581709;255,552;0,720509
246,0000;0,578745;255,623;0,721432
245,5000;0,588924;255,642;0,721681
245,0000;0,517449;255,536;0,720304
244,5000;0,41989;255,424;0,71885
244,0000;0,4111;255,412;0,71869
243,5000;0,435976;255,392;0,71844
243,0000;0,541231;255,363;0,718062
242,5000;0,575496;255,322;0,717527
242,0000;0,556572;255,339;0,717745
241,5000;0,496172;255,342;0,717782
241,0000;0,500674;255,316;0,717449
240,5000;0,437669;255,299;0,717224
240,0000;0,42581;255,338;0,717739
239,5000;0,522725;255,399;0,718527
239,0000;0,453252;255,416;0,718743
238,5000;0,340915;255,448;0,719162
238,0000;0,359549;255,515;0,720029
237,5000;0,367534;255,607;0,721222
237,0000;0,290933;255,712;0,722579
236,5000;0,389536;255,874;0,724686
236,0000;0,422469;256,032;0,72674
235,5000;0,452288;256,212;0,729064
235,0000;0,467061;256,417;0,731734
234,5000;0,384924;256,63;0,734495
234,0000;0,349242;256,89;0,737867
233,5000;0,319071;257,215;0,742075
233,0000;0,309109;257,598;0,74704
232,5000;0,237224;257,973;0,751914
232,0000;0,296925;258,406;0,757523
231,5000;0,291918;258,906;0,764012
231,0000;0,408085;259,562;0,772516
230,5000;0,247961;260,139;0,780001
230,0000;0,0747455;260,675;0,786954
229,5000;0,218986;261,489;0,797517
229,0000;0,360494;262,655;0,812634
228,5000;0,418643;263,964;0,829615
228,0000;0,247487;265,315;0,847137
227,5000;0,269251;266,87;0,867299
227,0000;0,421321;268,629;0,89012
226,5000;0,503987;270,608;0,91579
226,0000;0,19833;272,715;0,943119
225,5000;0,120326;275,14;0,974566
225,0000;0,2622;277,967;1,01122
224,5000;0,3494;281,163;1,04695
224,0000;0,2985;284,692;1,08594
223,5000;0,264889;288,646;1,12927
223,0000;0,154341;293,082;1,17744
222,5000;0,0173862;298,071;1,23107
222,0000;0,0499488;303,727;1,29116
221,5000;0,201326;309,982;1,35673
221,0000;0,218555;316,859;1,42775
220,5000;0,284119;324,498;1,50533
220,0000;0,0891306;332,912;1,58918
219,5000;0,257138;342,295;1,68073
219,0000;0,278405;352,543;1,77833
218,5000;0,000857117;363,672;1,88153
218,0000;0,381636;375,892;1,99145
217,5000;0,472966;388,997;2,10542
217,0000;0,0917898;403,006;2,22277
216,5000;0,0405251;417,961;2,34292
216,0000;0,113416;433,68;2,46352
215,5000;0,129612;450,007;2,57872
215,0000;-0,854855;466,954;2,69408
214,5000;-0,729674;484,696;2,81249
214,0000;-0,595125;502,965;2,93188
213,5000;-0,419;521,583;3,05089
213,0000;-0,384637;540,621;3,16984
212,5000;-1,22073;559,51;3,28509
212,0000;-1,37225;578,428;3,39775
211,5000;-0,367502;597,007;3,50572
211,0000;1,73877;614,851;3,60149
210,5000;0,946426;630,313;3,67633
210,0000;-1,34403;643,624;3,74076
209,5000;-1,02065;655,977;3,80055
209,0000;-1,39373;665,887;3,84853
208,5000;-1,02079;673,699;3,88634
208,0000;0,114051;679,402;3,91394
207,5000;0,856506;682,594;3,92939
207,0000;0,0775127;682,942;3,93108
206,5000;0,47663;681,624;3,9247
206,0000;0,237535;678,213;3,90819
205,5000;0,501259;673,438;3,88507
205,0000;1,49983;667,692;3,85726
204,5000;-0,714424;660,017;3,82011
204,0000;-1,07914;652,366;3,78308
203,5000;-1,21046;644,626;3,74561
203,0000;-0,322334;637,428;3,71077
202,5000;-0,429429;630,614;3,67779
202,0000;0,919612;625,218;3,65167
201,5000;0,854296;620,957;3,63104
201,0000;0,508993;618,59;3,61958
200,5000;1,29911;619,079;3,62195
200,0000;1,88845;622,553;3,63877
199,5000;1,81487;629,448;3,67214
199,0000;0,205864;640,149;3,72394
198,5000;0,952285;656,717;3,80414
198,0000;0,775463;679,058;3,91228
197,5000;0,0390682;708,208;4,05338
197,0000;-0,792164;744,738;4,2302
196,5000;-0,15157;790,497;4,4517
196,0000;1,02732;846,445;4,72252
195,5000;-0,294258;911,631;5,03805
195,0000;-1,13936;974,84;5,34401

##### Extended Information
[Comments]
Sample name;D2T_T35_120919e_BfDenat
Comment;C1: buffer; C2: D2-T; C3: T; C4: D1; C5: D2; C6: tern
User;YN
Division
Company;IREBS

[Detailed Information]
Creation date;19/09/2012 17:17

Data array type;Linear data array * 3
Horizontal axis;Wavelength [nm]
Vertical axis(1);CD [mdeg]
Vertical axis(2);HT [V]
Vertical axis(3);Abs
Start;260 nm
End;195 nm
Data interval;0,5 nm
Data points;131     

[Measurement Information]
Instrument Name;CD
Model Name;J-815
Serial No.;B039561168

Accessory;MPTC-490S/15
Accessory S/N;B002661326
  Cell;6
  Temperature;34.99 C
  Control Sonsor;Holder
  Monitor Sensor;Holder
  Start Mode;Keep target temperature +/-0.10 deg C while 5 seconds
  Cell Length;10 mm

Measurement Date;19/09/2012 17:16

Photometric Mode;CD, HT, Abs
Measure Range;260 - 195 nm
Data pitch;0.5 nm
Sensitivity;High
D.I.T.;0.5 sec
Bandwidth;1.00 nm
Start Mode;Immediately
Scanning Speed;100 nm/min
Baseline Correction;None
Shutter Control;Auto
PMT Voltage;Auto
Accumulations;5
Solvent;P20/0/6.8
Concentration;4 umol/L

