TITLE	PNA8xx2_T95aAftDenat_1mm_130711
DATA TYPE	
ORIGIN	JASCO
OWNER	IREBS
DATE	13/07/11
TIME	15:04:20
SPECTROMETER/DATA SYSTEM	
LOCALE	1036
RESOLUTION	
DELTAX	-1
XUNITS	NANOMETERS
YUNITS	CD [mdeg]
Y2UNITS	HT [V]
Y3UNITS	ABSORBANCE
FIRSTX	  400,0000
LASTX	  190,0000
NPOINTS	     211
FIRSTY	     2,07807
MAXY	     2,20424
MINY	   -25,14996
XYDATA
400,0000	2,07807	214,438	0,187265
399,0000	2,05296	214,034	0,182022
398,0000	2,05095	213,851	0,179654
397,0000	2,0508	213,878	0,179999
396,0000	2,05235	213,992	0,18148
395,0000	1,99422	214,097	0,182838
394,0000	1,97778	214,144	0,183447
393,0000	2,0006	214,149	0,183507
392,0000	1,98096	214,134	0,183321
391,0000	1,95761	214,117	0,183101
390,0000	1,91781	214,079	0,182602
389,0000	1,96539	213,994	0,181497
388,0000	1,98695	213,844	0,179557
387,0000	2,01027	213,626	0,176726
386,0000	1,95529	213,371	0,173422
385,0000	1,91487	213,104	0,169952
384,0000	1,85363	212,823	0,166316
383,0000	1,85517	212,552	0,162797
382,0000	1,82611	212,301	0,159546
381,0000	1,83089	212,073	0,156582
380,0000	1,86643	211,863	0,153861
379,0000	1,86018	211,67	0,151358
378,0000	1,86963	211,487	0,14899
377,0000	1,84169	211,308	0,146662
376,0000	1,85263	211,111	0,144114
375,0000	1,84434	210,898	0,141343
374,0000	1,86248	210,666	0,138339
373,0000	1,82386	210,441	0,135423
372,0000	1,81675	210,231	0,132701
371,0000	1,81392	210,034	0,130143
370,0000	1,83737	209,856	0,127836
369,0000	1,84184	209,69	0,125674
368,0000	1,80523	209,545	0,123797
367,0000	1,80497	209,411	0,122066
366,0000	1,80031	209,307	0,120708
365,0000	1,78926	209,195	0,119255
364,0000	1,77312	209,086	0,11784
363,0000	1,76493	208,959	0,116201
362,0000	1,77159	208,836	0,114603
361,0000	1,78209	208,715	0,113031
360,0000	1,78439	208,61	0,111676
359,0000	1,73708	208,501	0,110256
358,0000	1,73848	208,408	0,109056
357,0000	1,74096	208,313	0,107825
356,0000	1,80669	208,228	0,106719
355,0000	1,81054	208,151	0,105722
354,0000	1,79852	208,076	0,10474
353,0000	1,72685	207,991	0,103647
352,0000	1,69942	207,908	0,102566
351,0000	1,72778	207,816	0,101375
350,0000	1,80601	207,722	0,10016
349,0000	1,81964	207,624	0,0988875
348,0000	1,80052	207,514	0,0974572
347,0000	1,69316	207,393	0,0958869
346,0000	1,69149	207,259	0,0941503
345,0000	1,70654	207,107	0,0921784
344,0000	1,7601	206,949	0,090129
343,0000	1,78181	206,788	0,0880396
342,0000	1,78881	206,637	0,0860782
341,0000	1,72238	206,492	0,0841964
340,0000	1,68157	206,355	0,0824199
339,0000	1,66613	206,218	0,0806531
338,0000	1,71118	206,09	0,0789894
337,0000	1,76891	205,97	0,077425
336,0000	1,79952	205,861	0,0760136
335,0000	1,82202	205,762	0,0747375
334,0000	1,81687	205,673	0,0735839
333,0000	1,84734	205,588	0,072479
332,0000	1,82226	205,504	0,0713919
331,0000	1,84899	205,423	0,0703349
330,0000	1,83343	205,344	0,0693124
329,0000	1,84681	205,271	0,0683643
328,0000	1,8727	205,183	0,06722
327,0000	1,868	205,07	0,0657593
326,0000	1,91189	204,909	0,0636709
325,0000	1,93465	204,714	0,0611394
324,0000	1,94031	204,55	0,0590086
323,0000	1,9261	204,459	0,0578279
322,0000	1,92421	204,441	0,0575998
321,0000	1,909	204,429	0,0574442
320,0000	1,90864	204,378	0,0567796
319,0000	1,89888	204,293	0,0556834
318,0000	1,89784	204,19	0,0543489
317,0000	1,94897	204,066	0,052731
316,0000	1,98595	203,937	0,0510564
315,0000	1,99899	203,777	0,0489874
314,0000	2,00264	203,653	0,0473784
313,0000	2,03632	203,577	0,0463935
312,0000	2,07485	203,564	0,0462245
311,0000	2,12651	203,587	0,0465224
310,0000	2,15049	203,594	0,0466193
309,0000	2,133	203,589	0,0465537
308,0000	2,08992	203,574	0,0463493
307,0000	2,06833	203,554	0,0460956
306,0000	2,0584	203,535	0,0458474
305,0000	2,09697	203,52	0,0456578
304,0000	2,10484	203,525	0,0457148
303,0000	2,11932	203,542	0,0459408
302,0000	2,14054	203,571	0,0463143
301,0000	2,15798	203,596	0,046636
300,0000	2,17704	203,626	0,0470269
299,0000	2,19881	203,665	0,0475325
298,0000	2,17928	203,716	0,0481938
297,0000	2,1758	203,783	0,0490659
296,0000	2,18398	203,843	0,0498435
295,0000	2,16447	203,906	0,0506593
294,0000	2,20424	203,944	0,0511526
293,0000	2,18587	203,918	0,0508146
292,0000	2,15484	203,891	0,0504652
291,0000	2,10656	203,985	0,051687
290,0000	2,11638	204,212	0,0546305
289,0000	2,1509	204,524	0,0586806
288,0000	2,19826	204,8	0,0622532
287,0000	2,16362	205,048	0,0654725
286,0000	2,12319	205,308	0,0688439
285,0000	2,05939	205,595	0,0725713
284,0000	1,99945	205,911	0,0766661
283,0000	1,96908	206,241	0,0809455
282,0000	1,94295	206,578	0,0853156
281,0000	1,9758	206,942	0,0900318
280,0000	1,98647	207,322	0,0949674
279,0000	1,99663	207,752	0,100539
278,0000	1,99101	208,198	0,106326
277,0000	1,98789	208,677	0,112542
276,0000	1,98585	209,155	0,118745
275,0000	1,97276	209,647	0,125127
274,0000	1,93532	210,153	0,131684
273,0000	1,91911	210,677	0,138483
272,0000	1,88282	211,23	0,145654
271,0000	1,8618	211,822	0,15333
270,0000	1,8124	212,448	0,161445
269,0000	1,74714	213,111	0,170048
268,0000	1,64952	213,792	0,178876
267,0000	1,55779	214,49	0,187938
266,0000	1,56789	215,2	0,19714
265,0000	1,5619	215,889	0,206074
264,0000	1,57488	216,557	0,214738
263,0000	1,55536	217,219	0,223328
262,0000	1,54547	217,879	0,231891
261,0000	1,55688	218,548	0,240562
260,0000	1,53351	219,23	0,249415
259,0000	1,50707	219,897	0,258061
258,0000	1,42419	220,523	0,266188
257,0000	1,42236	221,11	0,273796
256,0000	1,40688	221,648	0,280778
255,0000	1,4002	222,161	0,287422
254,0000	1,42385	222,62	0,293382
253,0000	1,43222	223,028	0,298672
252,0000	1,42961	223,388	0,303336
251,0000	1,38329	223,715	0,307586
250,0000	1,34777	224,009	0,311392
249,0000	1,38525	224,251	0,314533
248,0000	1,43987	224,475	0,317437
247,0000	1,46649	224,687	0,320186
246,0000	1,43623	224,879	0,322684
245,0000	1,42229	225,063	0,325073
244,0000	1,39163	225,205	0,326914
243,0000	1,34987	225,341	0,328671
242,0000	1,30152	225,515	0,33093
241,0000	1,15656	225,733	0,333759
240,0000	1,12877	226,003	0,337262
239,0000	1,11994	226,32	0,341375
238,0000	1,21214	226,68	0,346037
237,0000	1,22613	227,086	0,351308
236,0000	1,21873	227,528	0,357043
235,0000	1,24005	228,015	0,363354
234,0000	1,28032	228,529	0,370027
233,0000	1,35068	229,073	0,377082
232,0000	1,33672	229,631	0,384311
231,0000	1,28386	230,194	0,391617
230,0000	1,23118	230,813	0,399649
229,0000	1,27363	231,536	0,409026
228,0000	1,29693	232,352	0,41961
227,0000	1,39232	233,241	0,431137
226,0000	1,39637	234,156	0,443003
225,0000	1,40551	235,106	0,455321
224,0000	1,419	236,123	0,468509
223,0000	1,45121	237,199	0,482471
222,0000	1,50473	238,367	0,497617
221,0000	1,50755	239,626	0,513952
220,0000	1,52138	241,004	0,531817
219,0000	1,54161	242,522	0,551506
218,0000	1,64367	244,192	0,573172
217,0000	1,67789	246,062	0,597422
216,0000	1,61815	248,134	0,624296
215,0000	1,54605	250,472	0,654617
214,0000	1,55438	253,161	0,689498
213,0000	1,65517	256,303	0,730247
212,0000	1,72269	260,007	0,778296
211,0000	1,67201	264,371	0,83489
210,0000	1,55697	269,485	0,901221
209,0000	1,51904	275,468	0,978819
208,0000	1,48242	282,447	1,06117
207,0000	1,5245	290,576	1,15029
206,0000	1,53832	300,029	1,25196
205,0000	1,482	310,99	1,36721
204,0000	1,47697	323,749	1,49779
203,0000	1,30317	338,785	1,64673
202,0000	1,27857	356,662	1,81687
201,0000	1,04373	378,062	2,01061
200,0000	1,37225	403,318	2,22534
199,0000	1,2157	433,181	2,45979
198,0000	0,99124	468,437	2,70407
197,0000	0,0195841	510,397	2,97971
196,0000	-0,347714	560,917	3,29356
195,0000	-2,55322	621,704	3,63466
194,0000	-3,87433	696,966	3,99897
193,0000	-0,386533	787,959	4,43942
192,0000	-6,96636	883,491	4,90184
191,0000	-16,4807	954,351	5,24483
190,0000	-25,15	992,701	5,43047

##### Extended Information
[Comments]
Sample name	PNA8xx2_T95aAftDenat_1mm_130711
Comment	C1: buff; C2: 871; C3: 865; C4: 866; C5: 865/866; C6: D2T
User	YN
Division	IREBS
Company	IREBS

[Detailed Information]
Creation date	11/07/2013 15:04

Data array type	Linear data array * 3
Horizontal axis	Wavelength [nm]
Vertical axis(1)	CD [mdeg]
Vertical axis(2)	HT [V]
Vertical axis(3)	Abs
Start	400 nm
End	190 nm
Data interval	1 nm
Data points	211     

[Measurement Information]
Instrument Name	CD
Model Name	J-815
Serial No.	B039561168

Accessory	MPTC-490S/15
Accessory S/N	B002661326
  Cell	1
  Temperature	94.99 C
  Control Sonsor	Holder
  Monitor Sensor	Holder
  Start Mode	Keep target temperature +/-0.10 deg C while 5 seconds
  Cell Length	10 mm

Measurement Date	11/07/2013 15:03

Photometric Mode	CD, HT, Abs
Measure Range	400 - 190 nm
Data pitch	1 nm
Sensitivity	Standard
D.I.T.	1 sec
Bandwidth	2.00 nm
Start Mode	Immediately
Scanning Speed	200 nm/min
Baseline Correction	None
Shutter Control	Auto
PMT Voltage	Auto
Accumulations	3
Solvent	P20/0/6.8
Concentration	50 umol/L

