TITLE	PNA8xx2_T35aAftDenat_1mm_130711
DATA TYPE	
ORIGIN	JASCO
OWNER	IREBS
DATE	13/07/11
TIME	19:19:33
SPECTROMETER/DATA SYSTEM	
LOCALE	1036
RESOLUTION	
DELTAX	-1
XUNITS	NANOMETERS
YUNITS	CD [mdeg]
Y2UNITS	HT [V]
Y3UNITS	ABSORBANCE
FIRSTX	  400,0000
LASTX	  190,0000
NPOINTS	     211
FIRSTY	     1,09845
MAXY	     1,09845
MINY	    -5,17169
XYDATA
400,0000	1,09845	203,75	0,0486408
399,0000	1,04734	203,348	0,0434262
398,0000	1,02951	203,178	0,0412127
397,0000	1,00833	203,216	0,04171
396,0000	0,97209	203,338	0,0432911
395,0000	0,962008	203,468	0,0449774
394,0000	0,944838	203,542	0,045945
393,0000	0,955264	203,579	0,0464212
392,0000	0,96614	203,596	0,0466464
391,0000	0,987951	203,611	0,0468412
390,0000	0,960638	203,617	0,0469156
389,0000	0,9784	203,556	0,0461184
388,0000	0,915405	203,433	0,0445254
387,0000	0,918104	203,236	0,0419695
386,0000	0,904315	203,01	0,0390367
385,0000	0,927203	202,764	0,0358492
384,0000	0,918237	202,515	0,0326168
383,0000	0,904537	202,272	0,0294688
382,0000	0,834528	202,053	0,0266331
381,0000	0,811497	201,857	0,0240792
380,0000	0,800688	201,679	0,02178
379,0000	0,799003	201,512	0,0196164
378,0000	0,793774	201,361	0,0176514
377,0000	0,813281	201,198	0,015532
376,0000	0,804979	201,03	0,0133542
375,0000	0,813582	200,851	0,01104
374,0000	0,807217	200,658	0,00853478
373,0000	0,796116	200,473	0,00612864
372,0000	0,788585	200,295	0,00382382
371,0000	0,77883	200,127	0,00165028
370,0000	0,778526	199,986	-0,000175345
369,0000	0,798224	199,849	-0,00196099
368,0000	0,81744	199,72	-0,00362776
367,0000	0,834276	199,6	-0,00519162
366,0000	0,828582	199,513	-0,00631045
365,0000	0,830017	199,425	-0,00745778
364,0000	0,800557	199,343	-0,00852119
363,0000	0,800272	199,256	-0,00964464
362,0000	0,807223	199,178	-0,0106653
361,0000	0,822916	199,096	-0,0117245
360,0000	0,828133	199,023	-0,0126694
359,0000	0,835615	198,933	-0,0138338
358,0000	0,848237	198,864	-0,014739
357,0000	0,802844	198,799	-0,0155799
356,0000	0,747112	198,754	-0,0161649
355,0000	0,688857	198,711	-0,0167148
354,0000	0,686534	198,67	-0,0172449
353,0000	0,678143	198,629	-0,0177872
352,0000	0,664186	198,595	-0,0182193
351,0000	0,6358	198,561	-0,0186694
350,0000	0,571273	198,512	-0,019295
349,0000	0,555261	198,456	-0,0200281
348,0000	0,543151	198,385	-0,0209506
347,0000	0,567144	198,298	-0,0220804
346,0000	0,617139	198,197	-0,0233837
345,0000	0,666768	198,095	-0,0247105
344,0000	0,678004	197,99	-0,0260759
343,0000	0,691205	197,886	-0,0274209
342,0000	0,703445	197,776	-0,0288476
341,0000	0,726824	197,664	-0,0302996
340,0000	0,706507	197,565	-0,0315815
339,0000	0,669969	197,472	-0,0327826
338,0000	0,679596	197,395	-0,0337899
337,0000	0,676609	197,321	-0,034745
336,0000	0,697854	197,246	-0,0357184
335,0000	0,696709	197,186	-0,036498
334,0000	0,719231	197,13	-0,0372232
333,0000	0,75319	197,088	-0,037769
332,0000	0,731066	197,042	-0,03836
331,0000	0,672071	196,999	-0,0389232
330,0000	0,646601	196,959	-0,0394395
329,0000	0,647991	196,926	-0,0398667
328,0000	0,715694	196,881	-0,0404484
327,0000	0,7306	196,817	-0,0412797
326,0000	0,741214	196,707	-0,042708
325,0000	0,742127	196,564	-0,0445616
324,0000	0,762387	196,437	-0,0462095
323,0000	0,774096	196,389	-0,0468406
322,0000	0,797032	196,408	-0,0465946
321,0000	0,788101	196,437	-0,0462151
320,0000	0,7915	196,42	-0,0464289
319,0000	0,787329	196,378	-0,0469771
318,0000	0,764055	196,325	-0,0476652
317,0000	0,769136	196,253	-0,0486035
316,0000	0,727689	196,166	-0,0497212
315,0000	0,753263	196,053	-0,0511963
314,0000	0,78001	195,97	-0,0522719
313,0000	0,820035	195,936	-0,0527069
312,0000	0,823918	195,955	-0,0524696
311,0000	0,79924	196,016	-0,0516713
310,0000	0,758691	196,052	-0,0512116
309,0000	0,772881	196,085	-0,0507832
308,0000	0,78752	196,1	-0,0505821
307,0000	0,857409	196,125	-0,0502586
306,0000	0,86543	196,149	-0,0499428
305,0000	0,886473	196,181	-0,0495388
304,0000	0,885515	196,222	-0,0490005
303,0000	0,874942	196,277	-0,0482891
302,0000	0,877905	196,342	-0,0474415
301,0000	0,853712	196,404	-0,0466365
300,0000	0,850658	196,473	-0,0457478
299,0000	0,864603	196,555	-0,0446755
298,0000	0,879722	196,648	-0,0434769
297,0000	0,893513	196,754	-0,0421051
296,0000	0,87248	196,85	-0,040855
295,0000	0,844298	196,961	-0,0394098
294,0000	0,821819	197,048	-0,0382913
293,0000	0,837499	197,084	-0,0378165
292,0000	0,857862	197,126	-0,0372767
291,0000	0,85282	197,292	-0,0351198
290,0000	0,82862	197,587	-0,0312946
289,0000	0,805771	197,96	-0,026454
288,0000	0,829532	198,302	-0,0220282
287,0000	0,834531	198,606	-0,018081
286,0000	0,812392	198,928	-0,0139048
285,0000	0,802598	199,267	-0,0095065
284,0000	0,765451	199,626	-0,00484713
283,0000	0,781598	199,99	-0,000136028
282,0000	0,804734	200,361	0,00468445
281,0000	0,809881	200,753	0,00976827
280,0000	0,796402	201,17	0,0151714
279,0000	0,805091	201,627	0,0211008
278,0000	0,788477	202,111	0,0273775
277,0000	0,728854	202,614	0,0339043
276,0000	0,665267	203,125	0,0405307
275,0000	0,654482	203,646	0,0472921
274,0000	0,672544	204,18	0,0542138
273,0000	0,652315	204,719	0,0612092
272,0000	0,606505	205,267	0,0683169
271,0000	0,574197	205,839	0,0757289
270,0000	0,572679	206,431	0,0834143
269,0000	0,585778	207,064	0,091619
268,0000	0,619548	207,727	0,100216
267,0000	0,596159	208,414	0,109131
266,0000	0,545725	209,122	0,118314
265,0000	0,489407	209,824	0,127417
264,0000	0,434855	210,522	0,136467
263,0000	0,388479	211,23	0,145656
262,0000	0,359631	211,932	0,15476
261,0000	0,340343	212,624	0,163735
260,0000	0,378371	213,302	0,172528
259,0000	0,398263	213,929	0,180656
258,0000	0,36444	214,506	0,188145
257,0000	0,28749	215,045	0,195135
256,0000	0,232294	215,556	0,201756
255,0000	0,210266	216,028	0,207883
254,0000	0,245034	216,44	0,213231
253,0000	0,263019	216,789	0,217748
252,0000	0,246153	217,113	0,221961
251,0000	0,22478	217,433	0,226111
250,0000	0,190172	217,729	0,22995
249,0000	0,112782	217,973	0,233114
248,0000	0,0927775	218,176	0,235747
247,0000	0,118261	218,343	0,237903
246,0000	0,141772	218,502	0,239966
245,0000	0,095757	218,652	0,241915
244,0000	0,012205	218,788	0,243674
243,0000	-0,0823252	218,918	0,24537
242,0000	-0,101495	219,074	0,247387
241,0000	-0,0701874	219,264	0,249858
240,0000	-0,0830597	219,492	0,25281
239,0000	-0,0854431	219,751	0,256165
238,0000	-0,168863	220,051	0,260055
237,0000	-0,240163	220,4	0,264587
236,0000	-0,291953	220,788	0,269623
235,0000	-0,307125	221,236	0,275425
234,0000	-0,31239	221,718	0,281679
233,0000	-0,267811	222,257	0,288669
232,0000	-0,308674	222,841	0,296244
231,0000	-0,379401	223,438	0,303996
230,0000	-0,431292	224,107	0,312662
229,0000	-0,467105	224,894	0,32287
228,0000	-0,457315	225,815	0,334816
227,0000	-0,49047	226,859	0,348363
226,0000	-0,547856	227,982	0,362924
225,0000	-0,61868	229,215	0,378913
224,0000	-0,70143	230,597	0,396842
223,0000	-0,744013	232,166	0,41719
222,0000	-0,788833	233,928	0,440044
221,0000	-0,769451	235,91	0,465756
220,0000	-0,747995	238,107	0,494251
219,0000	-0,73571	240,548	0,525906
218,0000	-0,796687	243,221	0,560574
217,0000	-0,878254	246,109	0,598029
216,0000	-0,925164	249,173	0,637779
215,0000	-0,984147	252,386	0,679444
214,0000	-1,09954	255,725	0,722751
213,0000	-1,24118	259,191	0,767708
212,0000	-1,33235	262,751	0,813887
211,0000	-1,34157	266,373	0,860858
210,0000	-1,31668	270,027	0,908249
209,0000	-1,33661	273,712	0,956042
208,0000	-1,3358	277,477	1,00487
207,0000	-1,44392	281,425	1,04986
206,0000	-1,49987	285,711	1,09714
205,0000	-1,51516	290,553	1,15003
204,0000	-1,58375	296,238	1,21143
203,0000	-1,55732	303,168	1,28525
202,0000	-1,67609	311,811	1,37573
201,0000	-1,53056	322,777	1,48798
200,0000	-1,44978	336,552	1,62495
199,0000	-1,67186	353,863	1,79073
198,0000	-1,70171	375,485	1,98785
197,0000	-1,74087	402,423	2,21798
196,0000	-2,40062	435,876	2,47991
195,0000	-2,03374	477,105	2,76213
194,0000	-2,97669	528,972	3,09739
193,0000	-3,65009	592,463	3,47956
192,0000	-2,83656	670,042	3,86864
191,0000	-1,94707	761,894	4,31325
190,0000	-5,17169	858,148	4,77917

##### Extended Information
[Comments]
Sample name	PNA8xx2_T35aAftDenat_1mm_130711
Comment	C1: buff; C2: 871; C3: 865; C4: 866; C5: 865/866; C6: D2T
User	YN
Division	IREBS
Company	IREBS

[Detailed Information]
Creation date	11/07/2013 19:19

Data array type	Linear data array * 3
Horizontal axis	Wavelength [nm]
Vertical axis(1)	CD [mdeg]
Vertical axis(2)	HT [V]
Vertical axis(3)	Abs
Start	400 nm
End	190 nm
Data interval	1 nm
Data points	211     

[Measurement Information]
Instrument Name	CD
Model Name	J-815
Serial No.	B039561168

Accessory	MPTC-490S/15
Accessory S/N	B002661326
  Cell	6
  Temperature	35.00 C
  Control Sonsor	Holder
  Monitor Sensor	Holder
  Start Mode	Keep target temperature +/-0.10 deg C while 5 seconds
  Cell Length	10 mm

Measurement Date	11/07/2013 19:18

Photometric Mode	CD, HT, Abs
Measure Range	400 - 190 nm
Data pitch	1 nm
Sensitivity	Standard
D.I.T.	1 sec
Bandwidth	2.00 nm
Start Mode	Immediately
Scanning Speed	200 nm/min
Baseline Correction	None
Shutter Control	Auto
PMT Voltage	Auto
Accumulations	3
Solvent	P20/0/6.8
Concentration	50 umol/L

