TITLE	PNA8xx2_T35aBfDenat_1mm_130711
DATA TYPE	
ORIGIN	JASCO
OWNER	IREBS
DATE	13/07/11
TIME	11:29:49
SPECTROMETER/DATA SYSTEM	
LOCALE	1036
RESOLUTION	
DELTAX	-1
XUNITS	NANOMETERS
YUNITS	CD [mdeg]
Y2UNITS	HT [V]
Y3UNITS	ABSORBANCE
FIRSTX	  400,0000
LASTX	  190,0000
NPOINTS	     211
FIRSTY	     1,12220
MAXY	     1,14555
MINY	   -12,61782
XYDATA
400,0000	1,1222	204,453	0,0577543
399,0000	1,14555	204,064	0,0527094
398,0000	1,13745	203,887	0,0504125
397,0000	1,08625	203,918	0,0508199
396,0000	1,04757	204,046	0,0524778
395,0000	1,03412	204,185	0,0542786
394,0000	1,00443	204,262	0,0552736
393,0000	0,999393	204,287	0,0556057
392,0000	0,972134	204,296	0,0557182
391,0000	0,937561	204,303	0,0558119
390,0000	0,920923	204,309	0,0558833
389,0000	0,8902	204,263	0,0552848
388,0000	0,924503	204,148	0,0538054
387,0000	0,97247	203,976	0,0515659
386,0000	1,02636	203,747	0,0485954
385,0000	1,02555	203,51	0,0455269
384,0000	0,982831	203,25	0,0421521
383,0000	0,943061	203,003	0,0389426
382,0000	0,891456	202,781	0,0360698
381,0000	0,883217	202,584	0,0335148
380,0000	0,897889	202,417	0,031355
379,0000	0,911996	202,258	0,0292902
378,0000	0,915534	202,099	0,0272296
377,0000	0,92639	201,94	0,0251639
376,0000	0,940066	201,764	0,0228837
375,0000	0,874869	201,591	0,0206395
374,0000	0,868952	201,408	0,0182581
373,0000	0,846378	201,223	0,0158572
372,0000	0,844243	201,049	0,0136111
371,0000	0,833581	200,887	0,0115019
370,0000	0,850413	200,746	0,0096738
369,0000	0,903776	200,618	0,00801244
368,0000	0,962105	200,515	0,00667961
367,0000	0,965088	200,414	0,00537303
366,0000	0,920599	200,348	0,00451847
365,0000	0,908541	200,271	0,00351258
364,0000	0,866735	200,196	0,00254283
363,0000	0,835234	200,112	0,00144775
362,0000	0,814818	200,027	0,000354385
361,0000	0,815224	199,946	-0,000700853
360,0000	0,828054	199,868	-0,00171308
359,0000	0,838096	199,782	-0,00283231
358,0000	0,829729	199,709	-0,00378015
357,0000	0,845536	199,647	-0,00457362
356,0000	0,811987	199,599	-0,00519861
355,0000	0,791717	199,558	-0,00573032
354,0000	0,770014	199,51	-0,00635399
353,0000	0,781754	199,461	-0,00698452
352,0000	0,797324	199,419	-0,00753245
351,0000	0,798962	199,368	-0,00819782
350,0000	0,795874	199,321	-0,00880156
349,0000	0,755277	199,256	-0,00964438
348,0000	0,738082	199,181	-0,0106209
347,0000	0,702714	199,083	-0,0118992
346,0000	0,727673	198,984	-0,0131746
345,0000	0,735191	198,881	-0,014511
344,0000	0,728843	198,775	-0,0158869
343,0000	0,73875	198,664	-0,0173241
342,0000	0,765044	198,551	-0,0187936
341,0000	0,77613	198,445	-0,0201622
340,0000	0,735265	198,349	-0,0214144
339,0000	0,717407	198,266	-0,0224959
338,0000	0,722232	198,187	-0,0235207
337,0000	0,742247	198,117	-0,0244232
336,0000	0,767977	198,044	-0,025374
335,0000	0,747827	197,983	-0,0261598
334,0000	0,716372	197,933	-0,0268059
333,0000	0,697105	197,902	-0,0272173
332,0000	0,697172	197,875	-0,0275647
331,0000	0,729956	197,839	-0,0280218
330,0000	0,763996	197,786	-0,028722
329,0000	0,77113	197,74	-0,0293168
328,0000	0,78179	197,686	-0,0300136
327,0000	0,769921	197,623	-0,0308358
326,0000	0,758298	197,509	-0,0323039
325,0000	0,764955	197,354	-0,0343244
324,0000	0,762422	197,22	-0,0360582
323,0000	0,763507	197,161	-0,0368172
322,0000	0,741027	197,177	-0,0366196
321,0000	0,748365	197,205	-0,03625
320,0000	0,772277	197,194	-0,0363892
319,0000	0,829024	197,153	-0,0369284
318,0000	0,8733	197,102	-0,0375864
317,0000	0,854176	197,029	-0,0385274
316,0000	0,834494	196,942	-0,0396647
315,0000	0,825042	196,828	-0,0411408
314,0000	0,835555	196,743	-0,0422464
313,0000	0,873799	196,705	-0,0427421
312,0000	0,88563	196,728	-0,042436
311,0000	0,855375	196,789	-0,0416434
310,0000	0,796932	196,835	-0,0410484
309,0000	0,757292	196,859	-0,0407367
308,0000	0,724603	196,867	-0,0406388
307,0000	0,783534	196,883	-0,0404286
306,0000	0,781324	196,903	-0,0401653
305,0000	0,81344	196,929	-0,0398304
304,0000	0,825271	196,96	-0,0394335
303,0000	0,86975	197,005	-0,0388494
302,0000	0,880729	197,057	-0,0381762
301,0000	0,885783	197,113	-0,0374405
300,0000	0,884757	197,172	-0,0366808
299,0000	0,850621	197,246	-0,0357146
298,0000	0,840209	197,326	-0,034676
297,0000	0,825446	197,419	-0,0334817
296,0000	0,816725	197,502	-0,0323969
295,0000	0,826763	197,591	-0,0312472
294,0000	0,807115	197,654	-0,0304211
293,0000	0,809644	197,661	-0,0303341
292,0000	0,807683	197,67	-0,0302178
291,0000	0,829695	197,806	-0,0284582
290,0000	0,834275	198,064	-0,0251155
289,0000	0,839608	198,398	-0,0207735
288,0000	0,836132	198,685	-0,017056
287,0000	0,843235	198,94	-0,0137511
286,0000	0,868045	199,197	-0,0104112
285,0000	0,875929	199,482	-0,00672328
284,0000	0,843967	199,777	-0,00289537
283,0000	0,83191	200,086	0,00111896
282,0000	0,806036	200,403	0,0052275
281,0000	0,80578	200,731	0,0094784
280,0000	0,786375	201,08	0,0140039
279,0000	0,751948	201,456	0,0188908
278,0000	0,740617	201,869	0,0242346
277,0000	0,769611	202,284	0,0296171
276,0000	0,803535	202,714	0,0352032
275,0000	0,804627	203,146	0,0408071
274,0000	0,765915	203,592	0,0465872
273,0000	0,738863	204,047	0,0524939
272,0000	0,742932	204,522	0,0586501
271,0000	0,723848	205,023	0,0651479
270,0000	0,70969	205,536	0,0718001
269,0000	0,678252	206,078	0,0788267
268,0000	0,678561	206,641	0,0861392
267,0000	0,669117	207,234	0,0938243
266,0000	0,661965	207,857	0,101912
265,0000	0,604321	208,473	0,109901
264,0000	0,587288	209,082	0,117794
263,0000	0,505905	209,678	0,125519
262,0000	0,493555	210,271	0,133215
261,0000	0,459883	210,875	0,141049
260,0000	0,415556	211,488	0,149004
259,0000	0,389048	212,105	0,157005
258,0000	0,363939	212,682	0,164491
257,0000	0,345358	213,238	0,171702
256,0000	0,346224	213,751	0,178345
255,0000	0,313227	214,222	0,184455
254,0000	0,292692	214,652	0,190033
253,0000	0,269915	215,028	0,194918
252,0000	0,286293	215,385	0,199545
251,0000	0,304948	215,723	0,203922
250,0000	0,303316	216,019	0,207761
249,0000	0,2835	216,258	0,210871
248,0000	0,249744	216,462	0,213516
247,0000	0,193519	216,668	0,216178
246,0000	0,164941	216,87	0,218801
245,0000	0,123967	217,08	0,221521
244,0000	0,0821381	217,261	0,223876
243,0000	0,0462697	217,438	0,226166
242,0000	0,0196574	217,645	0,228855
241,0000	0,0348999	217,885	0,23197
240,0000	0,0288686	218,167	0,235621
239,0000	-0,0160767	218,491	0,239826
238,0000	-0,0831156	218,858	0,244594
237,0000	-0,170424	219,28	0,250055
236,0000	-0,209799	219,752	0,256177
235,0000	-0,22437	220,277	0,262989
234,0000	-0,254006	220,855	0,270486
233,0000	-0,267224	221,479	0,278579
232,0000	-0,269607	222,14	0,287156
231,0000	-0,283271	222,81	0,295851
230,0000	-0,290676	223,54	0,305314
229,0000	-0,322771	224,373	0,316123
228,0000	-0,388994	225,337	0,328627
227,0000	-0,39707	226,405	0,342479
226,0000	-0,43654	227,559	0,357438
225,0000	-0,45171	228,822	0,373817
224,0000	-0,449913	230,23	0,392083
223,0000	-0,457759	231,811	0,412593
222,0000	-0,461702	233,585	0,435591
221,0000	-0,467119	235,564	0,461266
220,0000	-0,523284	237,769	0,489863
219,0000	-0,587327	240,192	0,521293
218,0000	-0,65377	242,843	0,555672
217,0000	-0,752353	245,696	0,59268
216,0000	-0,866282	248,724	0,631946
215,0000	-0,959329	251,894	0,673065
214,0000	-1,07673	255,191	0,715824
213,0000	-1,04385	258,597	0,760005
212,0000	-1,03725	262,098	0,805416
211,0000	-0,94053	265,651	0,851496
210,0000	-0,885539	269,238	0,898018
209,0000	-0,964977	272,861	0,945009
208,0000	-1,1554	276,553	0,992896
207,0000	-1,20115	280,409	1,03858
206,0000	-1,22145	284,567	1,08456
205,0000	-1,06733	289,268	1,13605
204,0000	-0,939957	294,774	1,1957
203,0000	-0,939636	301,482	1,2674
202,0000	-1,19089	309,821	1,35505
201,0000	-1,49407	320,357	1,46345
200,0000	-1,63737	333,538	1,59536
199,0000	-1,3825	350,059	1,75491
198,0000	-1,08833	370,603	1,94431
197,0000	-1,00768	396,141	2,16585
196,0000	-0,84444	427,847	2,41946
195,0000	-0,808021	466,774	2,69287
194,0000	-2,3902	515,752	3,01391
193,0000	-2,25441	575,489	3,38043
192,0000	-5,1231	648,647	3,76508
191,0000	-9,0602	735,782	4,18685
190,0000	-12,6178	830,707	4,64634

##### Extended Information
[Comments]
Sample name	PNA8xx2_T35aBfDenat_1mm_130711
Comment	C1: buff; C2: 871; C3: 865; C4: 866; C5: 865/866; C6: D2T
User	YN
Division	IREBS
Company	IREBS

[Detailed Information]
Creation date	11/07/2013 11:29

Data array type	Linear data array * 3
Horizontal axis	Wavelength [nm]
Vertical axis(1)	CD [mdeg]
Vertical axis(2)	HT [V]
Vertical axis(3)	Abs
Start	400 nm
End	190 nm
Data interval	1 nm
Data points	211     

[Measurement Information]
Instrument Name	CD
Model Name	J-815
Serial No.	B039561168

Accessory	MPTC-490S/15
Accessory S/N	B002661326
  Cell	6
  Temperature	35.00 C
  Control Sonsor	Holder
  Monitor Sensor	Holder
  Start Mode	Start immediately
  Cell Length	10 mm

Measurement Date	11/07/2013 11:28

Photometric Mode	CD, HT, Abs
Measure Range	400 - 190 nm
Data pitch	1 nm
Sensitivity	Standard
D.I.T.	1 sec
Bandwidth	2.00 nm
Start Mode	Immediately
Scanning Speed	200 nm/min
Baseline Correction	None
Shutter Control	Auto
PMT Voltage	Auto
Accumulations	3
Solvent	P20/0/6.8
Concentration	50 umol/L

